0 1
0 2
1 0
1 2
1 3
2 0
2 1
2 3
2 4
3 1
3 2
3 4
3 5
4 2
4 3
4 5
4 6
5 3
5 4
5 6
5 7
6 4
6 5
6 7
6 8
7 5
7 6
7 8
7 9
8 6
8 7
8 9
8 10
9 7
9 8
9 10
9 11
9 12
10 8
10 9
10 11
10 12
11 9
11 10
11 12
11 13
12 9
12 10
12 11
12 13
12 14
12 16
12 17
13 11
13 12
13 14
13 15
13 16
13 17
14 12
14 13
14 15
14 16
14 17
14 18
15 13
15 14
15 16
15 17
15 18
15 19
16 12
16 13
16 14
16 15
16 17
16 18
16 19
16 20
17 12
17 13
17 14
17 15
17 16
17 18
17 19
17 20
17 21
18 14
18 15
18 16
18 17
18 19
18 20
18 21
18 22
19 15
19 16
19 17
19 18
19 20
19 21
19 22
19 23
20 16
20 17
20 18
20 19
20 21
20 22
20 23
20 24
21 17
21 18
21 19
21 20
21 22
21 23
21 24
21 25
22 18
22 19
22 20
22 21
22 23
22 24
22 25
22 26
23 19
23 20
23 21
23 22
23 24
23 25
23 26
23 27
24 20
24 21
24 22
24 23
24 25
24 26
24 27
24 28
25 21
25 22
25 23
25 24
25 26
25 27
25 28
25 29
26 22
26 23
26 24
26 25
26 27
26 28
26 29
26 30
27 23
27 24
27 25
27 26
27 28
27 29
27 30
27 31
28 24
28 25
28 26
28 27
28 29
28 30
28 31
28 32
29 25
29 26
29 27
29 28
29 30
29 31
29 32
29 33
30 26
30 27
30 28
30 29
30 31
30 32
30 33
30 34
31 27
31 28
31 29
31 30
31 32
31 33
31 34
31 35
32 28
32 29
32 30
32 31
32 33
32 34
32 35
32 36
33 29
33 30
33 31
33 32
33 34
33 35
33 36
33 37
34 30
34 31
34 32
34 33
34 35
34 36
34 37
34 38
35 31
35 32
35 33
35 34
35 36
35 37
35 38
35 39
36 32
36 33
36 34
36 35
36 37
36 38
36 39
37 33
37 34
37 35
37 36
37 38
37 39
38 34
38 35
38 36
38 37
38 39
38 40
38 41
39 35
39 36
39 37
39 38
39 40
39 41
40 38
40 39
40 41
40 42
41 38
41 39
41 40
41 42
41 43
42 40
42 41
42 43
42 44
43 41
43 42
43 44
43 45
44 42
44 43
44 45
44 46
45 43
45 44
45 46
45 47
46 44
46 45
46 47
46 48
47 45
47 46
47 48
47 49
47 50
48 46
48 47
48 49
48 50
49 47
49 48
49 50
49 51
49 53
49 56
50 47
50 48
50 49
50 51
50 52
50 53
50 56
51 49
51 50
51 52
51 53
51 56
52 50
52 51
52 53
52 54
52 56
53 49
53 50
53 51
53 52
53 54
53 55
53 56
54 52
54 53
54 55
54 56
55 53
55 54
55 56
55 57
55 58
55 59
56 49
56 50
56 51
56 52
56 53
56 54
56 55
56 57
56 58
56 59
56 60
57 55
57 56
57 58
57 59
57 60
57 61
58 55
58 56
58 57
58 59
58 60
58 61
58 62
59 55
59 56
59 57
59 58
59 60
59 61
59 62
59 63
60 56
60 57
60 58
60 59
60 61
60 62
60 63
60 64
61 57
61 58
61 59
61 60
61 62
61 63
61 64
61 65
62 58
62 59
62 60
62 61
62 63
62 64
62 65
62 66
63 59
63 60
63 61
63 62
63 64
63 65
63 66
63 67
64 60
64 61
64 62
64 63
64 65
64 66
64 67
64 68
65 61
65 62
65 63
65 64
65 66
65 67
65 68
65 69
66 62
66 63
66 64
66 65
66 67
66 68
66 69
66 70
67 63
67 64
67 65
67 66
67 68
67 69
67 70
67 71
68 64
68 65
68 66
68 67
68 69
68 70
68 71
68 72
69 65
69 66
69 67
69 68
69 70
69 71
69 72
69 73
70 66
70 67
70 68
70 69
70 71
70 72
70 73
70 74
71 67
71 68
71 69
71 70
71 72
71 73
71 74
71 75
72 68
72 69
72 70
72 71
72 73
72 74
72 75
72 76
73 69
73 70
73 71
73 72
73 74
73 75
73 76
73 77
74 70
74 71
74 72
74 73
74 75
74 76
74 77
74 78
75 71
75 72
75 73
75 74
75 76
75 77
75 78
75 79
76 72
76 73
76 74
76 75
76 77
76 78
76 79
76 80
77 73
77 74
77 75
77 76
77 78
77 79
77 80
77 81
78 74
78 75
78 76
78 77
78 79
78 80
78 81
78 82
79 75
79 76
79 77
79 78
79 80
79 81
79 82
79 83
80 76
80 77
80 78
80 79
80 81
80 82
80 83
80 84
81 77
81 78
81 79
81 80
81 82
81 83
81 84
81 85
82 78
82 79
82 80
82 81
82 83
82 84
82 85
82 86
83 79
83 80
83 81
83 82
83 84
83 85
83 86
83 87
84 80
84 81
84 82
84 83
84 85
84 86
84 87
84 88
85 81
85 82
85 83
85 84
85 86
85 87
85 88
85 89
86 82
86 83
86 84
86 85
86 87
86 88
86 89
86 90
87 83
87 84
87 85
87 86
87 88
87 89
87 90
87 91
88 84
88 85
88 86
88 87
88 89
88 90
88 91
88 92
89 85
89 86
89 87
89 88
89 90
89 91
89 92
89 93
90 86
90 87
90 88
90 89
90 91
90 92
90 93
90 94
91 87
91 88
91 89
91 90
91 92
91 93
91 94
91 95
92 88
92 89
92 90
92 91
92 93
92 94
92 95
93 89
93 90
93 91
93 92
93 94
93 95
94 90
94 91
94 92
94 93
94 95
94 96
94 97
95 91
95 92
95 93
95 94
95 96
95 97
96 94
96 95
96 97
96 98
97 94
97 95
97 96
97 98
97 99
98 96
98 97
98 99
98 100
99 97
99 98
99 100
99 101
100 98
100 99
100 101
100 102
101 99
101 100
101 102
101 103
102 100
102 101
102 103
102 104
103 101
103 102
103 104
103 105
104 102
104 103
104 105
104 106
105 103
105 104
105 106
105 107
106 104
106 105
106 107
106 108
107 105
107 106
107 108
107 109
108 106
108 107
108 109
108 110
109 107
109 108
109 110
109 111
110 108
110 109
110 111
110 112
111 109
111 110
111 112
111 113
112 110
112 111
112 113
112 114
113 111
113 112
113 114
113 115
114 112
114 113
114 115
114 116
115 113
115 114
115 116
115 117
116 114
116 115
116 117
116 118
117 115
117 116
117 118
117 119
118 116
118 117
118 119
118 120
119 117
119 118
119 120
119 121
120 118
120 119
120 121
120 122
120 123
121 119
121 120
121 122
121 123
122 120
122 121
122 123
122 124
122 125
123 120
123 121
123 122
123 124
123 125
124 122
124 123
124 125
124 126
124 127
124 128
125 122
125 123
125 124
125 126
125 127
125 128
125 129
126 124
126 125
126 127
126 128
126 129
126 130
126 309
126 327
126 468
127 124
127 125
127 126
127 128
127 129
127 130
127 131
127 465
127 468
128 124
128 125
128 126
128 127
128 129
128 130
128 131
128 132
129 125
129 126
129 127
129 128
129 130
129 131
129 132
129 133
129 289
129 290
129 306
129 307
129 308
129 309
130 126
130 127
130 128
130 129
130 131
130 132
130 133
130 134
130 308
130 309
130 462
130 463
130 464
130 465
131 127
131 128
131 129
131 130
131 132
131 133
131 134
131 135
132 128
132 129
132 130
132 131
132 133
132 134
132 135
132 136
132 290
132 291
132 305
132 306
133 129
133 130
133 131
133 132
133 134
133 135
133 136
133 137
133 259
133 291
133 305
133 306
133 307
133 308
134 130
134 131
134 132
134 133
134 135
134 136
134 137
134 138
134 463
135 131
135 132
135 133
135 134
135 136
135 137
135 138
135 139
136 132
136 133
136 134
136 135
136 137
136 138
136 139
136 140
136 257
136 291
136 303
136 305
137 133
137 134
137 135
137 136
137 138
137 139
137 140
137 143
137 164
137 257
138 134
138 135
138 136
138 137
138 139
138 140
139 135
139 136
139 137
139 138
139 140
139 141
139 255
139 257
140 136
140 137
140 138
140 139
140 141
140 142
140 143
140 170
140 254
140 255
140 256
140 257
140 303
141 139
141 140
141 142
141 143
141 169
141 170
141 171
141 254
141 255
141 256
141 257
142 140
142 141
142 143
142 144
142 170
142 171
142 172
142 173
142 254
142 255
142 256
142 257
143 137
143 140
143 141
143 142
143 144
143 145
143 170
143 171
143 172
143 173
143 256
143 257
143 258
143 259
144 142
144 143
144 145
144 146
144 172
144 173
144 174
144 175
144 256
144 257
144 258
144 259
145 143
145 144
145 146
145 147
145 156
145 172
145 173
145 174
145 175
145 258
145 259
145 260
146 144
146 145
146 147
146 148
146 155
146 174
146 175
146 176
146 177
146 258
146 259
146 260
146 261
146 264
146 265
146 266
147 145
147 146
147 148
147 149
147 151
147 152
147 155
147 156
147 174
147 175
147 176
147 177
147 260
147 261
147 264
148 146
148 147
148 149
148 150
148 151
148 152
148 155
148 176
148 177
148 178
148 179
148 264
148 265
149 147
149 148
149 150
149 151
149 152
149 176
149 177
149 178
149 179
149 181
149 182
149 187
149 401
150 148
150 149
150 151
150 152
150 178
150 179
150 181
150 182
150 399
150 400
150 401
150 402
151 147
151 148
151 149
151 150
151 152
151 153
151 154
151 155
151 401
151 402
151 455
152 147
152 148
152 149
152 150
152 151
152 153
152 154
152 155
152 156
152 176
152 190
153 151
153 152
153 154
153 155
153 156
153 455
153 457
153 458
153 459
154 151
154 152
154 153
154 155
154 156
154 157
154 318
154 455
154 456
154 457
154 458
154 459
155 146
155 147
155 148
155 151
155 152
155 153
155 154
155 156
155 157
155 260
155 261
155 264
155 322
155 458
155 459
156 145
156 147
156 152
156 153
156 154
156 155
156 157
156 158
156 260
156 458
156 459
157 154
157 155
157 156
157 158
157 159
157 160
157 161
157 260
157 458
157 459
157 460
157 461
158 156
158 157
158 159
158 160
158 161
158 162
158 411
158 458
158 459
158 460
158 461
159 157
159 158
159 160
159 161
159 162
159 163
159 460
159 461
159 462
159 463
160 157
160 158
160 159
160 161
160 162
160 163
160 164
160 461
160 463
161 157
161 158
161 159
161 160
161 162
161 163
161 164
161 165
161 172
162 158
162 159
162 160
162 161
162 163
162 164
162 165
162 166
162 413
163 159
163 160
163 161
163 162
163 164
163 165
163 166
163 167
164 137
164 160
164 161
164 162
164 163
164 165
164 166
164 167
164 168
164 170
164 172
165 161
165 162
165 163
165 164
165 166
165 167
165 168
165 170
165 413
165 418
166 162
166 163
166 164
166 165
166 167
166 168
167 163
167 164
167 165
167 166
167 168
167 169
167 170
168 164
168 165
168 166
168 167
168 169
168 170
169 141
169 167
169 168
169 170
169 171
170 140
170 141
170 142
170 143
170 164
170 165
170 167
170 168
170 169
170 171
170 172
171 141
171 142
171 143
171 169
171 170
171 172
171 173
171 422
172 142
172 143
172 144
172 145
172 161
172 164
172 170
172 171
172 173
172 174
172 198
172 199
172 422
173 142
173 143
173 144
173 145
173 171
173 172
173 174
173 175
173 198
173 199
173 200
173 201
174 144
174 145
174 146
174 147
174 172
174 173
174 175
174 176
174 198
174 199
174 200
174 201
175 144
175 145
175 146
175 147
175 173
175 174
175 176
175 177
175 200
175 201
175 202
175 203
176 146
176 147
176 148
176 149
176 152
176 174
176 175
176 177
176 178
176 179
176 200
176 201
176 202
176 203
177 146
177 147
177 148
177 149
177 175
177 176
177 178
177 179
177 202
177 203
177 204
177 205
177 264
177 265
178 148
178 149
178 150
178 176
178 177
178 179
178 180
178 181
178 182
178 203
178 204
178 205
178 264
178 265
178 396
179 148
179 149
179 150
179 176
179 177
179 178
179 180
179 181
179 182
179 187
179 202
179 203
179 204
179 442
179 444
180 178
180 179
180 181
180 182
180 183
180 204
180 442
180 443
180 444
180 445
181 149
181 150
181 178
181 179
181 180
181 182
181 183
181 396
181 398
181 399
181 400
181 401
181 444
181 445
182 149
182 150
182 178
182 179
182 180
182 181
182 183
182 184
182 186
182 187
182 399
182 400
182 401
182 444
182 445
182 450
183 180
183 181
183 182
183 184
183 185
183 186
183 187
183 401
183 444
183 445
183 446
183 447
184 182
184 183
184 185
184 186
184 187
184 188
184 439
184 443
184 444
185 183
185 184
185 186
185 187
185 188
185 189
186 182
186 183
186 184
186 185
186 187
186 188
186 189
186 190
186 401
186 403
187 149
187 179
187 182
187 183
187 184
187 185
187 186
187 188
187 189
187 190
187 191
187 439
188 184
188 185
188 186
188 187
188 189
188 190
188 191
188 192
188 439
189 185
189 186
189 187
189 188
189 190
189 191
189 192
189 193
189 403
189 404
190 152
190 186
190 187
190 188
190 189
190 191
190 192
190 193
190 194
190 403
190 404
191 187
191 188
191 189
191 190
191 192
191 193
191 194
191 195
191 200
191 202
192 188
192 189
192 190
192 191
192 193
192 194
192 195
192 196
193 189
193 190
193 191
193 192
193 194
193 195
193 196
193 197
193 404
193 408
194 190
194 191
194 192
194 193
194 195
194 196
194 197
194 198
194 199
194 200
195 191
195 192
195 193
195 194
195 196
195 197
195 198
195 199
195 200
196 192
196 193
196 194
196 195
196 197
196 198
197 193
197 194
197 195
197 196
197 198
197 199
197 410
197 414
197 419
198 172
198 173
198 174
198 194
198 195
198 196
198 197
198 199
198 200
198 419
198 422
198 423
199 172
199 173
199 174
199 194
199 195
199 197
199 198
199 200
199 201
199 422
199 423
199 426
199 428
200 173
200 174
200 175
200 176
200 191
200 194
200 195
200 198
200 199
200 201
200 202
201 173
201 174
201 175
201 176
201 199
201 200
201 202
201 203
201 235
201 238
201 239
201 431
201 435
202 175
202 176
202 177
202 179
202 191
202 200
202 201
202 203
202 204
202 234
202 235
202 435
202 438
202 439
203 175
203 176
203 177
203 178
203 179
203 201
203 202
203 204
203 205
203 233
203 234
203 235
203 236
203 438
204 177
204 178
204 179
204 180
204 202
204 203
204 205
204 206
204 233
204 234
204 235
204 269
205 177
205 178
205 203
205 204
205 206
205 207
205 233
205 234
205 265
205 268
205 269
205 272
206 204
206 205
206 207
206 208
206 209
206 231
206 232
206 233
206 268
206 269
206 272
207 205
207 206
207 208
207 209
207 231
207 268
207 272
208 206
208 207
208 209
208 210
208 231
209 206
209 207
209 208
209 210
209 211
209 271
209 272
209 275
209 276
209 277
210 208
210 209
210 211
210 212
210 275
211 209
211 210
211 212
211 213
211 214
212 210
212 211
212 213
212 214
213 211
213 212
213 214
213 215
214 211
214 212
214 213
214 215
214 216
215 213
215 214
215 216
215 217
216 214
216 215
216 217
216 218
217 215
217 216
217 218
217 219
218 216
218 217
218 219
218 220
219 217
219 218
219 220
219 221
220 218
220 219
220 221
220 222
221 219
221 220
221 222
221 223
222 220
222 221
222 223
222 224
223 221
223 222
223 224
223 225
224 222
224 223
224 225
224 226
225 223
225 224
225 226
225 227
226 224
226 225
226 227
226 228
227 225
227 226
227 228
227 229
228 226
228 227
228 229
228 230
229 227
229 228
229 230
229 231
230 228
230 229
230 231
230 232
231 206
231 207
231 208
231 229
231 230
231 232
231 233
232 206
232 230
232 231
232 233
232 234
233 203
233 204
233 205
233 206
233 231
233 232
233 234
233 235
233 236
233 272
234 202
234 203
234 204
234 205
234 232
234 233
234 235
234 236
234 237
234 438
234 441
234 442
235 201
235 202
235 203
235 204
235 233
235 234
235 236
235 237
235 238
235 239
235 434
235 435
235 438
236 203
236 233
236 234
236 235
236 237
236 238
236 239
236 240
236 272
236 273
237 234
237 235
237 236
237 238
237 239
237 240
237 241
237 434
238 201
238 235
238 236
238 237
238 239
238 240
238 241
238 242
238 430
238 431
238 434
238 435
239 201
239 235
239 236
239 237
239 238
239 240
239 241
239 242
239 243
240 236
240 237
240 238
240 239
240 241
240 242
240 243
240 244
241 237
241 238
241 239
241 240
241 242
241 243
241 244
241 245
241 431
242 238
242 239
242 240
242 241
242 243
242 244
242 245
242 246
242 426
242 427
242 431
243 239
243 240
243 241
243 242
243 244
243 245
243 246
243 247
243 300
244 240
244 241
244 242
244 243
244 245
244 246
244 247
244 248
245 241
245 242
245 243
245 244
245 246
245 247
245 248
245 249
245 425
245 426
245 427
246 242
246 243
246 244
246 245
246 247
246 248
246 249
246 250
246 425
246 426
247 243
247 244
247 245
247 246
247 248
247 249
247 250
247 251
247 252
247 253
247 254
247 299
247 300
248 244
248 245
248 246
248 247
248 249
248 250
248 251
248 252
249 245
249 246
249 247
249 248
249 250
249 251
249 425
250 246
250 247
250 248
250 249
250 251
250 252
250 253
250 254
251 247
251 248
251 249
251 250
251 252
251 253
252 247
252 248
252 250
252 251
252 253
252 254
252 299
253 247
253 250
253 251
253 252
253 254
253 255
253 298
253 299
253 300
253 301
254 140
254 141
254 142
254 247
254 250
254 252
254 253
254 255
254 256
254 299
254 300
254 301
255 139
255 140
255 141
255 142
255 253
255 254
255 256
255 257
255 300
255 301
255 302
255 303
256 140
256 141
256 142
256 143
256 144
256 254
256 255
256 257
256 258
256 300
256 301
256 302
256 303
257 136
257 137
257 139
257 140
257 141
257 142
257 143
257 144
257 255
257 256
257 258
257 259
257 302
257 303
257 304
257 305
258 143
258 144
258 145
258 146
258 256
258 257
258 259
258 260
258 266
258 302
258 303
258 304
258 305
259 133
259 143
259 144
259 145
259 146
259 257
259 258
259 260
259 261
259 266
259 304
259 305
259 306
259 307
259 308
260 145
260 146
260 147
260 155
260 156
260 157
260 258
260 259
260 261
260 262
260 264
260 266
260 307
260 308
261 146
261 147
261 155
261 259
261 260
261 262
261 263
261 264
261 307
261 308
261 309
261 310
261 322
262 260
262 261
262 263
262 264
262 265
262 285
262 286
262 307
262 308
262 322
262 323
262 324
263 261
263 262
263 264
263 265
263 266
263 282
263 283
263 284
263 285
263 322
263 394
263 395
264 146
264 147
264 148
264 155
264 177
264 178
264 260
264 261
264 262
264 263
264 265
264 266
265 146
265 148
265 177
265 178
265 205
265 262
265 263
265 264
265 266
265 267
265 268
265 269
266 146
266 258
266 259
266 260
266 263
266 264
266 265
266 267
266 268
266 269
266 270
266 304
267 265
267 266
267 268
267 269
267 270
267 271
267 279
267 280
267 281
267 304
268 205
268 206
268 207
268 265
268 266
268 267
268 269
268 270
268 271
268 272
268 279
268 281
269 204
269 205
269 206
269 265
269 266
269 267
269 268
269 270
269 271
269 272
269 273
270 266
270 267
270 268
270 269
270 271
270 272
270 273
270 274
270 278
270 279
270 302
270 304
271 209
271 267
271 268
271 269
271 270
271 272
271 273
271 274
271 275
271 276
271 277
271 278
271 279
272 205
272 206
272 207
272 209
272 233
272 236
272 268
272 269
272 270
272 271
272 273
272 274
272 275
272 276
273 236
273 269
273 270
273 271
273 272
273 274
273 275
273 296
274 270
274 271
274 272
274 273
274 275
274 276
274 277
274 278
274 296
275 209
275 210
275 271
275 272
275 273
275 274
275 276
275 277
276 209
276 271
276 272
276 274
276 275
276 277
276 278
277 209
277 271
277 274
277 275
277 276
277 278
277 279
277 280
278 270
278 271
278 274
278 276
278 277
278 279
278 280
278 294
279 267
279 268
279 270
279 271
279 277
279 278
279 280
279 281
279 292
280 267
280 277
280 278
280 279
280 281
280 282
280 287
280 288
281 267
281 268
281 279
281 280
281 282
281 283
281 287
282 263
282 280
282 281
282 283
282 284
282 285
282 287
283 263
283 281
283 282
283 284
283 285
283 394
283 395
284 263
284 282
284 283
284 285
284 286
284 287
284 324
284 326
285 262
285 263
285 282
285 283
285 284
285 286
285 287
285 324
285 325
285 326
285 327
286 262
286 284
286 285
286 287
286 288
286 289
286 306
286 307
286 326
286 327
287 280
287 281
287 282
287 284
287 285
287 286
287 288
287 289
288 280
288 286
288 287
288 289
288 290
288 291
288 304
288 305
288 306
288 307
289 129
289 286
289 287
289 288
289 290
289 291
289 305
289 306
290 129
290 132
290 288
290 289
290 291
290 292
290 305
290 306
291 132
291 133
291 136
291 288
291 289
291 290
291 292
291 293
291 303
291 304
291 305
291 306
292 279
292 290
292 291
292 293
292 294
292 303
292 304
292 305
293 291
293 292
293 294
293 295
293 301
293 302
293 303
293 304
294 278
294 292
294 293
294 295
294 296
294 301
294 302
294 303
294 304
295 293
295 294
295 296
295 297
295 298
295 300
295 301
295 302
296 273
296 274
296 294
296 295
296 297
296 298
296 300
296 301
296 302
297 295
297 296
297 298
297 299
297 300
297 301
298 253
298 295
298 296
298 297
298 299
298 300
298 301
299 247
299 252
299 253
299 254
299 297
299 298
299 300
299 301
300 243
300 247
300 253
300 254
300 255
300 256
300 295
300 296
300 297
300 298
300 299
300 301
300 302
301 253
301 254
301 255
301 256
301 293
301 294
301 295
301 296
301 297
301 298
301 299
301 300
301 302
301 303
302 255
302 256
302 257
302 258
302 270
302 293
302 294
302 295
302 296
302 300
302 301
302 303
302 304
303 136
303 140
303 255
303 256
303 257
303 258
303 291
303 292
303 293
303 294
303 301
303 302
303 304
303 305
304 257
304 258
304 259
304 266
304 267
304 270
304 288
304 291
304 292
304 293
304 294
304 302
304 303
304 305
304 306
305 132
305 133
305 136
305 257
305 258
305 259
305 288
305 289
305 290
305 291
305 292
305 303
305 304
305 306
305 307
306 129
306 132
306 133
306 259
306 286
306 288
306 289
306 290
306 291
306 304
306 305
306 307
306 308
307 129
307 133
307 259
307 260
307 261
307 262
307 286
307 288
307 305
307 306
307 308
307 309
308 129
308 130
308 133
308 259
308 260
308 261
308 262
308 306
308 307
308 309
308 310
308 461
308 462
309 126
309 129
309 130
309 261
309 307
309 308
309 310
309 311
309 323
309 461
309 462
309 463
310 261
310 308
310 309
310 311
310 312
310 314
310 319
310 322
310 323
310 459
310 460
310 461
310 462
311 309
311 310
311 312
311 313
311 314
311 459
311 460
311 461
311 462
312 310
312 311
312 313
312 314
312 319
313 311
313 312
313 314
313 315
313 460
314 310
314 311
314 312
314 313
314 315
314 316
314 318
314 319
314 459
314 460
315 313
315 314
315 316
315 317
315 318
315 319
315 456
316 314
316 315
316 317
316 318
316 319
316 320
316 334
316 335
316 338
317 315
317 316
317 318
317 319
317 320
317 321
317 335
317 338
317 339
317 342
317 456
318 154
318 314
318 315
318 316
318 317
318 319
318 320
318 321
318 322
318 323
318 456
318 459
319 310
319 312
319 314
319 315
319 316
319 317
319 318
319 320
319 321
319 322
319 323
319 324
319 330
319 335
320 316
320 317
320 318
320 319
320 321
320 322
320 323
320 324
320 330
320 335
320 336
320 338
320 339
320 390
321 317
321 318
321 319
321 320
321 322
321 323
321 324
321 335
321 339
321 393
321 394
322 155
322 261
322 262
322 263
322 310
322 318
322 319
322 320
322 321
322 323
322 324
322 394
323 262
323 309
323 310
323 318
323 319
323 320
323 321
323 322
323 324
323 325
323 326
323 327
323 328
323 330
324 262
324 284
324 285
324 319
324 320
324 321
324 322
324 323
324 325
324 326
324 327
324 328
324 330
324 394
325 285
325 323
325 324
325 326
325 327
325 328
325 329
325 330
325 331
325 332
326 284
326 285
326 286
326 323
326 324
326 325
326 327
326 328
326 329
327 126
327 285
327 286
327 323
327 324
327 325
327 326
327 328
327 329
328 323
328 324
328 325
328 326
328 327
328 329
328 330
329 325
329 326
329 327
329 328
329 330
329 331
330 319
330 320
330 323
330 324
330 325
330 328
330 329
330 331
330 332
330 334
330 335
331 325
331 329
331 330
331 332
331 333
331 334
331 335
332 325
332 330
332 331
332 333
332 334
332 335
332 336
332 383
332 386
332 387
332 390
333 331
333 332
333 334
333 335
333 336
333 337
333 383
333 386
333 387
334 316
334 330
334 331
334 332
334 333
334 335
334 336
334 337
334 338
335 316
335 317
335 319
335 320
335 321
335 330
335 331
335 332
335 333
335 334
335 336
335 337
335 338
335 339
335 390
336 320
336 332
336 333
336 334
336 335
336 337
336 338
336 339
336 340
336 386
336 387
336 389
336 390
337 333
337 334
337 335
337 336
337 338
337 339
337 340
337 341
337 360
337 386
338 316
338 317
338 320
338 334
338 335
338 336
338 337
338 339
338 340
338 341
338 342
339 317
339 320
339 321
339 335
339 336
339 337
339 338
339 340
339 341
339 342
339 343
340 336
340 337
340 338
340 339
340 341
340 342
340 343
340 344
340 345
340 360
341 337
341 338
341 339
341 340
341 342
341 343
341 360
342 317
342 338
342 339
342 340
342 341
342 343
342 344
342 453
342 454
342 455
343 339
343 340
343 341
343 342
343 344
343 345
343 348
343 451
343 452
343 453
343 454
344 340
344 342
344 343
344 345
344 346
344 347
344 348
344 451
344 452
344 453
345 340
345 343
345 344
345 346
345 347
345 348
345 349
345 356
346 344
346 345
346 347
346 348
346 349
346 350
346 356
347 344
347 345
347 346
347 348
347 349
347 350
347 351
347 448
347 449
347 450
347 451
347 452
348 343
348 344
348 345
348 346
348 347
348 349
348 350
348 351
348 352
348 451
349 345
349 346
349 347
349 348
349 350
349 351
349 352
349 353
349 354
349 355
349 356
350 346
350 347
350 348
350 349
350 351
350 352
350 353
350 354
350 448
350 449
351 347
351 348
351 349
351 350
351 352
351 353
351 448
351 449
351 450
351 451
352 348
352 349
352 350
352 351
352 353
352 354
352 367
353 349
353 350
353 351
353 352
353 354
353 355
354 349
354 350
354 352
354 353
354 355
354 356
354 363
354 366
354 367
354 370
355 349
355 353
355 354
355 356
355 357
355 366
356 345
356 346
356 349
356 354
356 355
356 357
356 358
357 355
357 356
357 358
357 359
357 360
357 362
357 363
358 356
358 357
358 359
358 360
358 362
358 363
359 357
359 358
359 360
359 361
359 362
359 363
360 337
360 340
360 341
360 357
360 358
360 359
360 361
360 362
360 363
360 364
361 359
361 360
361 362
361 363
361 364
361 365
361 382
362 357
362 358
362 359
362 360
362 361
362 363
362 364
362 365
362 366
363 354
363 357
363 358
363 359
363 360
363 361
363 362
363 364
363 365
363 366
363 367
364 360
364 361
364 362
364 363
364 365
364 366
364 367
364 368
364 382
364 383
364 385
364 386
365 361
365 362
365 363
365 364
365 366
365 367
365 368
365 369
365 380
365 381
365 382
365 385
366 354
366 355
366 362
366 363
366 364
366 365
366 367
366 368
366 369
366 370
366 380
367 352
367 354
367 363
367 364
367 365
367 366
367 368
367 369
367 370
367 371
367 385
368 364
368 365
368 366
368 367
368 369
368 370
368 371
368 372
368 373
368 374
368 380
368 381
368 382
368 384
368 385
369 365
369 366
369 367
369 368
369 370
369 371
369 372
369 373
369 374
369 380
369 381
370 354
370 366
370 367
370 368
370 369
370 371
370 372
370 373
371 367
371 368
371 369
371 370
371 372
371 373
372 368
372 369
372 370
372 371
372 373
372 374
372 380
373 368
373 369
373 370
373 371
373 372
373 374
373 375
373 380
373 381
373 384
373 385
374 368
374 369
374 372
374 373
374 375
374 376
374 377
374 378
374 379
374 380
374 381
375 373
375 374
375 376
375 377
375 378
375 379
375 380
375 381
376 374
376 375
376 377
376 378
376 379
377 374
377 375
377 376
377 378
377 379
378 374
378 375
378 376
378 377
378 379
378 380
379 374
379 375
379 376
379 377
379 378
379 380
379 381
380 365
380 366
380 368
380 369
380 372
380 373
380 374
380 375
380 378
380 379
380 381
380 382
381 365
381 368
381 369
381 373
381 374
381 375
381 379
381 380
381 382
381 383
381 384
381 385
382 361
382 364
382 365
382 368
382 380
382 381
382 383
382 384
382 385
382 386
383 332
383 333
383 364
383 381
383 382
383 384
383 385
383 386
383 387
384 368
384 373
384 381
384 382
384 383
384 385
384 386
384 387
384 388
385 364
385 365
385 367
385 368
385 373
385 381
385 382
385 383
385 384
385 386
385 387
385 388
385 389
386 332
386 333
386 336
386 337
386 364
386 382
386 383
386 384
386 385
386 387
386 388
386 389
386 390
387 332
387 333
387 336
387 383
387 384
387 385
387 386
387 388
387 389
387 390
387 391
388 384
388 385
388 386
388 387
388 389
388 390
388 391
388 392
389 336
389 385
389 386
389 387
389 388
389 390
389 391
389 392
389 393
390 320
390 332
390 335
390 336
390 386
390 387
390 388
390 389
390 391
390 392
390 393
390 394
391 387
391 388
391 389
391 390
391 392
391 393
391 394
391 395
392 388
392 389
392 390
392 391
392 393
392 394
392 395
392 396
392 397
392 398
393 321
393 389
393 390
393 391
393 392
393 394
393 395
393 396
393 397
393 398
394 263
394 283
394 321
394 322
394 324
394 390
394 391
394 392
394 393
394 395
394 396
395 263
395 283
395 391
395 392
395 393
395 394
395 396
395 397
395 398
396 178
396 181
396 392
396 393
396 394
396 395
396 397
396 398
397 392
397 393
397 395
397 396
397 398
397 399
398 181
398 392
398 393
398 395
398 396
398 397
398 399
398 400
398 450
399 150
399 181
399 182
399 397
399 398
399 400
399 401
399 445
399 449
399 450
399 451
400 150
400 181
400 182
400 398
400 399
400 401
400 402
400 450
400 451
400 452
400 453
401 149
401 150
401 151
401 181
401 182
401 183
401 186
401 399
401 400
401 402
401 403
401 450
401 451
401 452
401 453
402 150
402 151
402 400
402 401
402 403
402 404
402 452
402 453
402 454
402 455
403 186
403 189
403 190
403 401
403 402
403 404
403 405
403 454
404 189
404 190
404 193
404 402
404 403
404 405
404 406
405 403
405 404
405 406
405 407
405 408
406 404
406 405
406 407
406 408
407 405
407 406
407 408
407 409
408 193
408 405
408 406
408 407
408 409
408 410
409 407
409 408
409 410
409 411
410 197
410 408
410 409
410 411
410 412
410 414
410 415
411 158
411 409
411 410
411 412
411 413
411 414
412 410
412 411
412 413
412 414
412 415
413 162
413 165
413 411
413 412
413 414
413 415
414 197
414 410
414 411
414 412
414 413
414 415
414 416
414 418
414 419
415 410
415 412
415 413
415 414
415 416
415 417
415 418
415 419
416 414
416 415
416 417
416 418
416 419
416 420
417 415
417 416
417 418
417 419
417 420
417 421
418 165
418 414
418 415
418 416
418 417
418 419
418 420
418 421
418 422
419 197
419 198
419 414
419 415
419 416
419 417
419 418
419 420
419 421
419 422
419 423
420 416
420 417
420 418
420 419
420 421
420 422
420 423
420 424
421 417
421 418
421 419
421 420
421 422
421 423
421 424
422 171
422 172
422 198
422 199
422 418
422 419
422 420
422 421
422 423
422 424
423 198
423 199
423 419
423 420
423 421
423 422
423 424
423 425
423 426
423 428
424 420
424 421
424 422
424 423
424 425
424 426
425 245
425 246
425 249
425 423
425 424
425 426
425 427
426 199
426 242
426 245
426 246
426 423
426 424
426 425
426 427
426 428
427 242
427 245
427 425
427 426
427 428
427 429
427 430
427 431
428 199
428 423
428 426
428 427
428 429
428 430
428 431
428 432
429 427
429 428
429 430
429 431
429 432
429 433
430 238
430 427
430 428
430 429
430 431
430 432
430 433
430 434
431 201
431 238
431 241
431 242
431 427
431 428
431 429
431 430
431 432
431 433
431 434
431 435
432 428
432 429
432 430
432 431
432 433
432 434
432 435
432 436
433 429
433 430
433 431
433 432
433 434
433 435
433 436
433 437
434 235
434 237
434 238
434 430
434 431
434 432
434 433
434 435
434 436
434 437
434 438
435 201
435 202
435 235
435 238
435 431
435 432
435 433
435 434
435 436
435 437
435 438
435 439
436 432
436 433
436 434
436 435
436 437
436 438
436 439
436 440
437 433
437 434
437 435
437 436
437 438
437 439
437 440
437 441
438 202
438 203
438 234
438 235
438 434
438 435
438 436
438 437
438 439
438 440
438 441
438 442
439 184
439 187
439 188
439 202
439 435
439 436
439 437
439 438
439 440
439 441
439 442
440 436
440 437
440 438
440 439
440 441
440 442
440 443
441 234
441 437
441 438
441 439
441 440
441 442
441 443
442 179
442 180
442 234
442 438
442 439
442 440
442 441
442 443
442 444
443 180
443 184
443 440
443 441
443 442
443 444
443 445
444 179
444 180
444 181
444 182
444 183
444 184
444 442
444 443
444 445
444 446
445 180
445 181
445 182
445 183
445 399
445 443
445 444
445 446
445 447
445 449
445 450
446 183
446 444
446 445
446 447
446 448
446 449
446 450
447 183
447 445
447 446
447 448
447 449
447 450
447 451
448 347
448 350
448 351
448 446
448 447
448 449
448 450
448 451
449 347
449 350
449 351
449 399
449 445
449 446
449 447
449 448
449 450
449 451
450 182
450 347
450 351
450 398
450 399
450 400
450 401
450 445
450 446
450 447
450 448
450 449
450 451
450 452
451 343
451 344
451 347
451 348
451 351
451 399
451 400
451 401
451 447
451 448
451 449
451 450
451 452
451 453
452 343
452 344
452 347
452 400
452 401
452 402
452 450
452 451
452 453
452 454
453 342
453 343
453 344
453 400
453 401
453 402
453 451
453 452
453 454
453 455
454 342
454 343
454 402
454 403
454 452
454 453
454 455
454 456
455 151
455 153
455 154
455 342
455 402
455 453
455 454
455 456
455 457
456 154
456 315
456 317
456 318
456 454
456 455
456 457
456 458
456 459
457 153
457 154
457 455
457 456
457 458
457 459
458 153
458 154
458 155
458 156
458 157
458 158
458 456
458 457
458 459
458 460
459 153
459 154
459 155
459 156
459 157
459 158
459 310
459 311
459 314
459 318
459 456
459 457
459 458
459 460
459 461
460 157
460 158
460 159
460 310
460 311
460 313
460 314
460 458
460 459
460 461
460 462
461 157
461 158
461 159
461 160
461 308
461 309
461 310
461 311
461 459
461 460
461 462
461 463
462 130
462 159
462 308
462 309
462 310
462 311
462 460
462 461
462 463
462 464
462 465
462 467
462 468
463 130
463 134
463 159
463 160
463 309
463 461
463 462
463 464
463 465
463 467
464 130
464 462
464 463
464 465
464 466
464 467
464 468
465 127
465 130
465 462
465 463
465 464
465 466
465 467
465 468
466 464
466 465
466 467
466 468
466 469
467 462
467 463
467 464
467 465
467 466
467 468
467 469
468 126
468 127
468 462
468 464
468 465
468 466
468 467
468 469
468 470
469 466
469 467
469 468
469 470
469 471
470 468
470 469
470 471
470 472
471 469
471 470
471 472
471 473
472 470
472 471
472 473
472 474
473 471
473 472
473 474
473 475
474 472
474 473
474 475
474 476
475 473
475 474
475 476
475 477
476 474
476 475
476 477
476 478
477 475
477 476
477 478
477 479
478 476
478 477
478 479
478 480
479 477
479 478
479 480
479 481
480 478
480 479
480 481
480 482
481 479
481 480
481 482
481 483
482 480
482 481
482 483
482 484
483 481
483 482
483 484
483 485
484 482
484 483
484 485
484 486
485 483
485 484
485 486
485 487
486 484
486 485
486 487
486 488
487 485
487 486
487 488
487 489
488 486
488 487
488 489
488 490
489 487
489 488
489 490
489 491
490 488
490 489
490 491
490 492
491 489
491 490
491 492
491 493
492 490
492 491
492 493
492 494
493 491
493 492
493 494
493 495
494 492
494 493
494 495
494 496
495 493
495 494
495 496
495 497
496 494
496 495
496 497
496 498
497 495
497 496
497 498
497 499
498 496
498 497
498 499
498 500
499 497
499 498
499 500
499 501
500 498
500 499
500 501
500 502
501 499
501 500
501 502
501 503
502 500
502 501
502 503
502 504
503 501
503 502
503 504
503 505
504 502
504 503
504 505
504 506
505 503
505 504
505 506
505 507
506 504
506 505
506 507
506 508
507 505
507 506
507 508
507 509
508 506
508 507
508 509
508 510
509 507
509 508
509 510
509 511
510 508
510 509
510 511
510 512
511 509
511 510
511 512
511 513
512 510
512 511
512 513
512 514
513 511
513 512
513 514
513 515
514 512
514 513
514 515
514 516
515 513
515 514
515 516
515 517
516 514
516 515
516 517
516 518
517 515
517 516
517 518
517 519
518 516
518 517
518 519
518 520
519 517
519 518
519 520
519 521
520 518
520 519
520 521
520 522
521 519
521 520
521 522
521 523
522 520
522 521
522 523
522 524
523 521
523 522
523 524
523 525
524 522
524 523
524 525
524 526
525 523
525 524
525 526
525 527
526 524
526 525
526 527
526 528
527 525
527 526
527 528
527 529
528 526
528 527
528 529
528 530
529 527
529 528
529 530
529 531
530 528
530 529
530 531
530 532
531 529
531 530
531 532
531 533
532 530
532 531
532 533
532 534
533 531
533 532
533 534
533 535
534 532
534 533
534 535
534 536
535 533
535 534
535 536
535 537
536 534
536 535
536 537
536 538
537 535
537 536
537 538
537 539
538 536
538 537
538 539
538 540
539 537
539 538
539 540
539 541
540 538
540 539
540 541
540 542
541 539
541 540
541 542
541 543
542 540
542 541
542 543
542 544
543 541
543 542
543 544
543 545
544 542
544 543
544 545
544 546
545 543
545 544
545 546
545 547
546 544
546 545
546 547
546 548
547 545
547 546
547 548
548 546
548 547
